# Created by:        SpecsLab Prodigy, Version 4.79.1-r98952 
#
# XY-Serializer Export Settings:
#   Comment Prefix:           #
#   Output Meta Data:         yes
#   Energy Axis:              Binding Energy
#   Count Rate:               Counts per Second
#   Separate Scan Data:       no
#   Separate Channel Data:    no
#   External Channel Data:    yes
#   Transmission Function:    no
#   Error Bar:                no
#   Operation Results:        yes
#   Time Zone Format:         UTC
#
# Group:                        Spectrum Group
#
# Region:                       Overall
# Spectrum ID:                  2
# Acquisition Date:             04/22/26 14:41:24 UTC
# Analysis Method:              XPS
# Analyzer:                     PHOIBOS MCD5 Analyzer
# Analyzer Lens:                LargeArea:1.5kV
# Analyzer Slit:                5:7x20\B:open
# Scan Mode:                    FixedAnalyzerTransmission
# Curves/Scan:                  1
# Values/Curve:                 1002
# Dwell Time:                   0.5
# Excitation Energy:            1253.64
# Binding Energy:               1000
# Pass Energy:                  50
# Bias Voltage:                 90
# Detector Voltage:             3000
# Eff. Workfunction:            4.543
# Source:                       X-Ray Dummy
# Comment:                      
#
# Cycle: 0
# Number of Scans: 1
#
# Cycle: 0, Curve: 0
# Acquisition Date:             04/22/26 14:41:24 UTC
#
# ColumnLabels:                 energy counts/s
#
1000  28310.58
999.001  28921.219
998.002  29261.156
997.003  29236.441
996.004  29008.359
995.005  28754.771
994.00599  28642.449
993.00699  28553.417
992.00799  28995.73
991.00899  28882.97
990.00999  28341.704
989.01099  28025.997
988.01199  27334.803
987.01299  26116.966
986.01399  25431.602
985.01499  24572.243
984.01598  23599.537
983.01698  22706.515
982.01798  22054.077
981.01898  21706.625
980.01998  21360.836
979.02098  20908.477
978.02198  20966.007
977.02298  21035.064
976.02398  20886.164
975.02498  21087.077
974.02597  20888.019
973.02697  20784.047
972.02797  20645.787
971.02897  20799.269
970.02997  20664.159
969.03097  20741.254
968.03197  20800.658
967.03297  20779.588
966.03397  21229.004
965.03497  21651.775
964.03596  21547.304
963.03696  21312.872
962.03796  21139.323
961.03896  20904.596
960.03996  20748.119
959.04096  20624.256
958.04196  20469.968
957.04296  20523.272
956.04396  20353.761
955.04496  20182.537
954.04595  20361.102
953.04695  20423.372
952.04795  20363.959
951.04895  20101.993
950.04995  20357.471
949.05095  20615.221
948.05195  20585.536
947.05295  20475.619
946.05395  20175.146
945.05495  20467.503
944.05594  20601.437
943.05694  20394.547
942.05794  20299.394
941.05894  20465.133
940.05994  20407.591
939.06094  20685.02
938.06194  20927.002
937.06294  20737.317
936.06394  20416.382
935.06494  20517.093
934.06593  20700.163
933.06693  20501.662
932.06793  20539.313
931.06893  20557.754
930.06993  20496.52
929.07093  20383.636
928.07193  20553.643
927.07293  20616.679
926.07393  20655.356
925.07493  20814.84
924.07592  20692.808
923.07692  20824.991
922.07792  20957.233
921.07892  20612.515
920.07992  20487.552
919.08092  20562.515
918.08192  20749.95
917.08292  20791.523
916.08392  20840.707
915.08492  20907.507
914.08591  21083.84
913.08691  21078.424
912.08791  20927.1
911.08891  20914.224
910.08991  20824.266
909.09091  20677.192
908.09191  20669.677
907.09291  20731.66
906.09391  21005.234
905.09491  21186.394
904.0959  21090.098
903.0969  20886.192
902.0979  21303.352
901.0989  21437.423
900.0999  21428.706
899.1009  21382.632
898.1019  21445.996
897.1029  21274.896
896.1039  21226.644
895.1049  21449.145
894.10589  21360.93
893.10689  21315.504
892.10789  21365.847
891.10889  21153.104
890.10989  20991.853
889.11089  21401.361
888.11189  21624.593
887.11289  21457.257
886.11389  21532.486
885.11489  21324.652
884.11588  21382.232
883.11688  21632.461
882.11788  21457.772
881.11888  21578.464
880.11988  21873.9
879.12088  21615.557
878.12188  21500.153
877.12288  21474.161
876.12388  21575.76
875.12488  21987.708
874.12587  21701.082
873.12687  21534.164
872.12787  21791.77
871.12887  21838.657
870.12987  21757.889
869.13087  21835.668
868.13187  21845.675
867.13287  21845.105
866.13387  21949.395
865.13487  21799.361
864.13586  21729.211
863.13686  21756.168
862.13786  21815.932
861.13886  21748.044
860.13986  21791.968
859.14086  21962.593
858.14186  21860.348
857.14286  21819
856.14386  22068.916
855.14486  21951.812
854.14585  21996.912
853.14685  22363.284
852.14785  22530.652
851.14885  22168.898
850.14985  22399.363
849.15085  22456.735
848.15185  22329.122
847.15285  22310.125
846.15385  22202.152
845.15485  22269.666
844.15584  22317.921
843.15684  22408.794
842.15784  22170.729
841.15884  22331.44
840.15984  22437.207
839.16084  22123.147
838.16184  22289.612
837.16284  22212.039
836.16384  22321.636
835.16484  22451.331
834.16583  22554.387
833.16683  22756.393
832.16783  22433.207
831.16883  22404.201
830.16983  22461.639
829.17083  22544.695
828.17183  22547.565
827.17283  22538.521
826.17383  22588.192
825.17483  22397.716
824.17582  22556.226
823.17682  22743.577
822.17782  22598.24
821.17882  22580.344
820.17982  22640.588
819.18082  22561.716
818.18182  22611.41
817.18282  22635.838
816.18382  22549.039
815.18482  22498.268
814.18581  22721.951
813.18681  22848.616
812.18781  22877.897
811.18881  22978.168
810.18981  22869.454
809.19081  22777.029
808.19181  22596.909
807.19281  22701.083
806.19381  22798.036
805.19481  22772.745
804.1958  22767.009
803.1968  22623.213
802.1978  22578.449
801.1988  22952.643
800.1998  22985.934
799.2008  22827.454
798.2018  22953.509
797.2028  22793.472
796.2038  22657.497
795.2048  22750.539
794.20579  22731.719
793.20679  23060.671
792.20779  23254.006
791.20879  22848.609
790.20979  22927.764
789.21079  22859.902
788.21179  22931.796
787.21279  23082.723
786.21379  23129.913
785.21479  23038.539
784.21578  22776.419
783.21678  22895.43
782.21778  23122.239
781.21878  22739.573
780.21978  22609.121
779.22078  22538.687
778.22178  22607.574
777.22278  22680.766
776.22378  22657.148
775.22478  22711.222
774.22577  22816.886
773.22677  22821.712
772.22777  22906.886
771.22877  23102.227
770.22977  23226.493
769.23077  23313.626
768.23177  23118.967
767.23277  23186.962
766.23377  22919.924
765.23477  23049.994
764.23576  23220.072
763.23676  22843.653
762.23776  22665.465
761.23876  22426.28
760.23976  22284.697
759.24076  22030.29
758.24176  21750.376
757.24276  21249.231
756.24376  21052.044
755.24476  21000.847
754.24575  21003.797
753.24675  21203.704
752.24775  21270.282
751.24875  21089.033
750.24975  21448.14
749.25075  21922.391
748.25175  22237.21
747.25275  22706.109
746.25375  23101.649
745.25475  23330.123
744.25574  23196.567
743.25674  22837.137
742.25774  22183.585
741.25874  21664.911
740.25974  21958.842
739.26074  21665.879
738.26174  20817.126
737.26274  20218.684
736.26374  19599.26
735.26474  19035.531
734.26573  18774.713
733.26673  18419.164
732.26773  18244.684
731.26873  18149.735
730.26973  18265.646
729.27073  18294.711
728.27173  18340.671
727.27273  18136.838
726.27373  18393.044
725.27473  18478.916
724.27572  18326.029
723.27672  18218.696
722.27772  18234.103
721.27872  18007.458
720.27972  17835.583
719.28072  18076.755
718.28172  18304.946
717.28272  18378.932
716.28372  18324.576
715.28472  18098.965
714.28571  18144.013
713.28671  18170.879
712.28771  18209.443
711.28871  18187.249
710.28971  18082.567
709.29071  18011.611
708.29171  18004.376
707.29271  18058.374
706.29371  18100.927
705.29471  18050.018
704.2957  17912.644
703.2967  17794.574
702.2977  18182.481
701.2987  18142.424
700.2997  18215.586
699.3007  18164.774
698.3017  18073.14
697.3027  18044.944
696.3037  18016.442
695.3047  18122.346
694.30569  18199.906
693.30669  18169.035
692.30769  18243.594
691.30869  18461.148
690.30969  18438.694
689.31069  18264.173
688.31169  18179.142
687.31269  18246.57
686.31369  18448.612
685.31469  18258.54
684.31568  18084.132
683.31668  18012.935
682.31768  18234.298
681.31868  17936.741
680.31968  17965.846
679.32068  18219.142
678.32168  18205.043
677.32268  18190.075
676.32368  18151.581
675.32468  18247.066
674.32567  18260.022
673.32667  18117.214
672.32767  18124.924
671.32867  18214.826
670.32967  17987.916
669.33067  17946.28
668.33167  18068.855
667.33267  18180.718
666.33367  18166.782
665.33467  18237.369
664.33566  18268.908
663.33666  18187.044
662.33766  18003.976
661.33866  18089.006
660.33966  18115.078
659.34066  18028.471
658.34166  18064.214
657.34266  17945.352
656.34366  18074.089
655.34466  18085.523
654.34565  18106.869
653.34665  18111.734
652.34765  17904.664
651.34865  17990.614
650.34965  18025.172
649.35065  18013.754
648.35165  17765.987
647.35265  17730.806
646.35365  18050.929
645.35465  18159.36
644.35564  18055.377
643.35664  17874.561
642.35764  17851.162
641.35864  17827.758
640.35964  17891.918
639.36064  18028.817
638.36164  17626.335
637.36264  17662.906
636.36364  17748.54
635.36464  17582.174
634.36563  17620.075
633.36663  17824.26
632.36763  17881.612
631.36863  17844.973
630.36963  17995.767
629.37063  18019.892
628.37163  17784.714
627.37263  17569.945
626.37363  17652.818
625.37463  17932.113
624.37562  17809.156
623.37662  17636.87
622.37762  17449.679
621.37862  17473.789
620.37962  17391.551
619.38062  17323.604
618.38162  17468.753
617.38262  17613.571
616.38362  17505.467
615.38462  17362.057
614.38561  17349.564
613.38661  17555.501
612.38761  17678.147
611.38861  17491.603
610.38961  17274.355
609.39061  17398.174
608.39161  17576.518
607.39261  17422.792
606.39361  17430.317
605.39461  17457.51
604.3956  17315.76
603.3966  17217.255
602.3976  17092.969
601.3986  17183.371
600.3996  17439.319
599.4006  17494.565
598.4016  17356.648
597.4026  17455.549
596.4036  17316.121
595.4046  17125.923
594.40559  17217.074
593.40659  17228.277
592.40759  16978.787
591.40859  16950.106
590.40959  16867.196
589.41059  17032.949
588.41159  16896.291
587.41259  16866.015
586.41359  16990.967
585.41459  16980.628
584.41558  16817.083
583.41658  16690.541
582.41758  16851.22
581.41858  16857.416
580.41958  16975.069
579.42058  17026.062
578.42158  16822.812
577.42258  16761.861
576.42358  16546.86
575.42458  16471.24
574.42557  16609.099
573.42657  16463.693
572.42757  16574.166
571.42857  16718.514
570.42957  16492.273
569.43057  16210.217
568.43157  16312.115
567.43257  16326.573
566.43357  16067.919
565.43457  16175.147
564.43556  16087.907
563.43656  15901.918
562.43756  16068.425
561.43856  16359.33
560.43956  16448.587
559.44056  16570.425
558.44156  16683.716
557.44256  16621.429
556.44356  16615.813
555.44456  16618.132
554.44555  16722.293
553.44655  16344.303
552.44755  16259.693
551.44855  16148.915
550.44955  15884.913
549.45055  15791.788
548.45155  15416.308
547.45255  15059.928
546.45355  14690.542
545.45455  14322.174
544.45554  13903.49
543.45654  13709.768
542.45754  13683.228
541.45854  13305.722
540.45954  12916.353
539.46054  12884.937
538.46154  13033.317
537.46254  13164.935
536.46354  14206.367
535.46454  17297.953
534.46553  22814.052
533.46653  26972.307
532.46753  25073.504
531.46853  18949.452
530.46953  14344.124
529.47053  12637.904
528.47153  12240.209
527.47253  12471.473
526.47353  12693.065
525.47453  13078.175
524.47552  13455.132
523.47652  13112.641
522.47752  12888.373
521.47852  12378.491
520.47952  11936.188
519.48052  11573.217
518.48152  11387.931
517.48252  11546.907
516.48352  11619.468
515.48452  11681.869
514.48551  11695.51
513.48651  11764.363
512.48751  11847.146
511.48851  11815.589
510.48951  11556.52
509.49051  11538.078
508.49151  11665.692
507.49251  11524.473
506.49351  11424.291
505.49451  11457.169
504.4955  11479.397
503.4965  11435.489
502.4975  11399.843
501.4985  11432.037
500.4995  11465.632
499.5005  11494.526
498.5015  11347.782
497.5025  11500.044
496.5035  11566.867
495.5045  11421.852
494.50549  11393.571
493.50649  11487.5
492.50749  11453.01
491.50849  11307.609
490.50949  11470.681
489.51049  11522.496
488.51149  11503.825
487.51249  11659.909
486.51349  11616.834
485.51449  11499.604
484.51548  11680.781
483.51648  11716.163
482.51748  11668.392
481.51848  11736.159
480.51948  11636.012
479.52048  11491.538
478.52148  11479.677
477.52248  11699.524
476.52348  11755.078
475.52448  11584.682
474.52547  11425.98
473.52647  11450.069
472.52747  11429.315
471.52847  11374.51
470.52947  11546.739
469.53047  11635.869
468.53147  11627.174
467.53247  11686.699
466.53347  11804.613
465.53447  11685.423
464.53546  11672.882
463.53646  11773.585
462.53746  11733.353
461.53846  11631.039
460.53946  11537.604
459.54046  11687.69
458.54146  11805.478
457.54246  11745.453
456.54346  11690.06
455.54446  11887.422
454.54545  11812.62
453.54645  11712.37
452.54745  11672.98
451.54845  11814.847
450.54945  11738.198
449.55045  11583.304
448.55145  11568.603
447.55245  11677.825
446.55345  11881.421
445.55445  11668.767
444.55544  11787.437
443.55644  12080.48
442.55744  12067.724
441.55844  12483.319
440.55944  12579.354
439.56044  12362.655
438.56144  12214.214
437.56244  12027.126
436.56344  11619.874
435.56444  11362.422
434.56543  11481.461
433.56643  11680.04
432.56743  11782.311
431.56843  11754.335
430.56943  11580.71
429.57043  11529.543
428.57143  11645.034
427.57243  11538.379
426.57343  11398.647
425.57443  11695.647
424.57542  11661.008
423.57642  11620.877
422.57742  11570.453
421.57842  11690.243
420.57942  11666.269
419.58042  11517.76
418.58142  11434.772
417.58242  11378.087
416.58342  11436.693
415.58442  11556.521
414.58541  11580.228
413.58641  11602.744
412.58741  11637.397
411.58841  11690.445
410.58941  11679.031
409.59041  11901.342
408.59141  11904.177
407.59241  11772.001
406.59341  11634.846
405.59441  11634.788
404.5954  11590.982
403.5964  11712.05
402.5974  11922.952
401.5984  11978.767
400.5994  12001.222
399.6004  11902.758
398.6014  11800.131
397.6024  11768.037
396.6034  11742.528
395.6044  11760.569
394.60539  11753.867
393.60639  11852.009
392.60739  11917.232
391.60839  11904.823
390.60939  11867.585
389.61039  11978.926
388.61139  11857.407
387.61239  11869.006
386.61339  11909.269
385.61439  11768.709
384.61538  11864.598
383.61638  11861.421
382.61738  12013.704
381.61838  12118.136
380.61938  12099.514
379.62038  12136.565
378.62138  12035.901
377.62238  12026.836
376.62338  12025.266
375.62438  11953.351
374.62537  12113.523
373.62637  12171.001
372.62737  12080.688
371.62837  12247.182
370.62937  12305.959
369.63037  12093.936
368.63137  12337.536
367.63237  12255.212
366.63337  12152.541
365.63437  12340.167
364.63536  12276.57
363.63636  12217.722
362.63736  12283.906
361.63836  12347.998
360.63936  12185.964
359.64036  12173.388
358.64136  12150.46
357.64236  12140.734
356.64336  12164.033
355.64436  12220.144
354.64535  12407.116
353.64635  13110.756
352.64735  13772.981
351.64835  13833.654
350.64935  13715.862
349.65035  14772.705
348.65135  15512.837
347.65235  14451.613
346.65335  12747.866
345.65435  11878.24
344.65534  11862.301
343.65634  11872.984
342.65734  11979.861
341.65834  11844.266
340.65934  11920.479
339.66034  12171.833
338.66134  12156.71
337.66234  11968.302
336.66334  11800.548
335.66434  11840.865
334.66533  11830.931
333.66633  11886.58
332.66733  11989.443
331.66833  12007.882
330.66933  12081.953
329.67033  12050.39
328.67133  11851.189
327.67233  11995.617
326.67333  11920.764
325.67433  11935.047
324.67532  11906.538
323.67632  11918.074
322.67732  11953.953
321.67832  12052.174
320.67932  12027.987
319.68032  11900.045
318.68132  11889.242
317.68232  11969.104
316.68332  11972.9
315.68432  12024.182
314.68531  12185.563
313.68631  12312.129
312.68731  12408.183
311.68831  12403.208
310.68931  12460.605
309.69031  12661.112
308.69131  12652.671
307.69231  12931.213
306.69331  12839.47
305.69431  12686.684
304.6953  12505.226
303.6963  12107.424
302.6973  11366.847
301.6983  10762.394
300.6993  10247.883
299.7003  9535.6149
298.7013  8749.5304
297.7023  8260.0381
296.7033  7864.5001
295.7043  7233.702
294.70529  6665.4806
293.70629  6123.2547
292.70729  5960.7177
291.70829  6578.3419
290.70929  8111.2179
289.71029  9934.3781
288.71129  14135.581
287.71229  27460.009
286.71329  44990.442
285.71429  43543.591
284.71528  24108.769
283.71628  9846.3449
282.71728  5916.7056
281.71828  5590.801
280.71928  5509.2039
279.72028  5783.0875
278.72128  7271.0845
277.72228  8547.7676
276.72328  8405.0742
275.72428  6944.5144
274.72527  5310.3395
273.72627  4172.4324
272.72727  3711.2431
271.72827  3655.4571
270.72927  3735.014
269.73027  3813.7706
268.73127  3847.6365
267.73227  3879.7134
266.73327  3883.1103
265.73427  3779.5499
264.73526  3599.6455
263.73626  3409.5762
262.73726  3301.3836
261.73826  3333.3952
260.73926  3352.2736
259.74026  3317.7478
258.74126  3233.8282
257.74226  3312.7125
256.74326  3363.3454
255.74426  3225.6337
254.74525  3285.9578
253.74625  3290.1939
252.74725  3185.6181
251.74825  3120.2491
250.74925  3147.2704
249.75025  3167.7815
248.75125  3203.0004
247.75225  3239.5221
246.75325  3121.8207
245.75425  3163.0696
244.75524  3207.9442
243.75624  3249.5932
242.75724  3298.7217
241.75824  3287.878
240.75924  3297.9201
239.76024  3312.8431
238.76124  3248.7591
237.76224  3251.414
236.76324  3210.2158
235.76424  3207.751
234.76523  3179.8767
233.76623  3108.3776
232.76723  3017.37
231.76823  2970.898
230.76923  2986.7462
229.77023  2896.9959
228.77123  2952.7709
227.77223  2950.4297
226.77323  2948.2121
225.77423  2993.4375
224.77522  2944.1555
223.77622  2882.757
222.77722  2895.2477
221.77822  2896.5484
220.77922  2847.3134
219.78022  2832.1945
218.78122  2869.0538
217.78222  2869.7808
216.78322  2896.5433
215.78422  2892.6128
214.78521  2902.5035
213.78621  2869.7632
212.78721  2882.3151
211.78821  2911.9161
210.78921  2920.5207
209.79021  2893.4986
208.79121  2820.7519
207.79221  2882.8306
206.79321  2903.7219
205.79421  2815.193
204.7952  2803.8189
203.7962  2818.8751
202.7972  2924.4047
201.7982  2891.0166
200.7992  2757.5838
199.8002  2705.6846
198.8012  2706.1205
197.8022  2718.484
196.8032  2722.0431
195.8042  2758.4491
194.80519  2822.963
193.80619  2859.4719
192.80719  2823.6163
191.80819  2818.3154
190.80919  2844.219
189.81019  2769.2239
188.81119  2775.1722
187.81219  2817.2305
186.81319  2842.9516
185.81419  2746.6583
184.81518  2764.8806
183.81618  2759.1177
182.81718  2665.6178
181.81818  2691.8499
180.81918  2769.6593
179.82018  2760.4587
178.82118  2669.2644
177.82218  2732.5485
176.82318  2765.6258
175.82418  2699.0273
174.82517  2703.9272
173.82617  2778.5737
172.82717  2781.9595
171.82817  2837.0758
170.82917  2894.4616
169.83017  2823.3106
168.83117  2796.3617
167.83217  2727.7089
166.83317  2670.6927
165.83417  2611.6333
164.83516  2611.2787
163.83616  2666.0471
162.83716  2706.1071
161.83816  2686.6328
160.83916  2689.471
159.84016  2665.4314
158.84116  2618.7727
157.84216  2660.6424
156.84316  2696.9662
155.84416  2729.2339
154.84515  2784.1307
153.84615  2735.2839
152.84715  2663.1064
151.84815  2703.7237
150.84915  2682.523
149.85015  2621.5675
148.85115  2609.3074
147.85215  2553.9743
146.85315  2506.2113
145.85415  2550.892
144.85514  2629.8497
143.85614  2618.4067
142.85714  2670.5189
141.85814  2668.4725
140.85914  2583.7552
139.86014  2587.6804
138.86114  2667.2094
137.86214  2641.5804
136.86314  2628.0879
135.86414  2638.8712
134.86513  2654.9373
133.86613  2653.7741
132.86713  2593.2886
131.86813  2535.6418
130.86913  2617.8047
129.87013  2587.7003
128.87113  2585.6514
127.87213  2622.1435
126.87313  2647.0317
125.87413  2555.0527
124.87512  2518.6984
123.87612  2474.0639
122.87712  2559.9654
121.87812  2601.862
120.87912  2534.9437
119.88012  2566.6866
118.88112  2477.1642
117.88212  2448.8647
116.88312  2510.519
115.88412  2506.7134
114.88511  2482.8288
113.88611  2541.7349
112.88711  2525.2979
111.88811  2514.9516
110.88911  2500.2887
109.89011  2521.2675
108.89111  2498.9898
107.89211  2462.2526
106.89311  2514.5599
105.89411  2544.7424
104.8951  2581.5081
103.8961  2581.023
102.8971  2522.4054
101.8981  2435.6834
100.8991  2447.4728
99.9001  2505.5353
98.901099  2509.6479
97.902098  2468.7399
96.903097  2470.7369
95.904096  2542.0865
94.905095  2529.2471
93.906094  2484.927
92.907093  2484.4047
91.908092  2533.2268
90.909091  2531.9613
89.91009  2545.6704
88.911089  2524.8765
87.912088  2597.2236
86.913087  2536.2587
85.914086  2447.2376
84.915085  2442.8281
83.916084  2439.3948
82.917083  2401.3975
81.918082  2414.5088
80.919081  2468.1794
79.92008  2381.1792
78.921079  2397.021
77.922078  2507.2075
76.923077  2447.7404
75.924076  2419.7142
74.925075  2470.6043
73.926074  2440.0231
72.927073  2433.8183
71.928072  2441.0331
70.929071  2431.8005
69.93007  2407.7875
68.931069  2460.4472
67.932068  2470.1177
66.933067  2464.4796
65.934066  2443.3291
64.935065  2451.2017
63.936064  2472.8854
62.937063  2443.6314
61.938062  2417.5246
60.939061  2411.5968
59.94006  2374.0837
58.941059  2407.1744
57.942058  2460.4393
56.943057  2412.4338
55.944056  2380.9968
54.945055  2465.3166
53.946054  2475.8065
52.947053  2488.1394
51.948052  2451.5614
50.949051  2436.2209
49.95005  2432.158
48.951049  2439.7383
47.952048  2376.4937
46.953047  2422.0923
45.954046  2543.1353
44.955045  2507.4579
43.956044  2359.4839
42.957043  2351.778
41.958042  2354.4737
40.959041  2287.7927
39.96004  2248.9591
38.961039  2232.0517
37.962038  2200.1429
36.963037  2227.7154
35.964036  2224.2421
34.965035  2224.8706
33.966034  2155.8938
32.967033  2148.1405
31.968032  2213.6172
30.969031  2209.2229
29.97003  2351.2952
28.971029  2495.5713
27.972028  2644.3406
26.973027  2826.4117
25.974026  2701.9718
24.975025  2318.341
23.976024  2147.2469
22.977023  2120.5706
21.978022  2142.3614
20.979021  2228.2927
19.98002  2271.7902
18.981019  2322.6416
17.982018  2305.3153
16.983017  2242.3139
15.984016  2224.9899
14.985015  2233.3743
13.986014  2096.5541
12.987013  1953.7212
11.988012  1894.8445
10.989011  1869.518
9.99001  1865.7256
8.991009  1799.6798
7.992008  1872.5793
6.993007  1939.345
5.994006  1818.7811
4.995005  1651.0209
3.996004  1558.4435
2.997003  1511.2374
1.998002  1520.2004
0.999001  1514.4269
0  1496.0198

# Region:                       Si
# Spectrum ID:                  3
# Acquisition Date:             04/22/26 16:37:39 UTC
# Analysis Method:              XPS
# Analyzer:                     PHOIBOS MCD5 Analyzer
# Analyzer Lens:                LargeArea:1.5kV
# Analyzer Slit:                5:7x20\B:open
# Scan Mode:                    FixedAnalyzerTransmission
# Curves/Scan:                  1
# Values/Curve:                 1501
# Dwell Time:                   0.1
# Excitation Energy:            1253.64
# Binding Energy:               200
# Pass Energy:                  50
# Bias Voltage:                 90
# Detector Voltage:             3000
# Eff. Workfunction:            4.543
# Source:                       X-Ray Dummy
# Comment:                      
#
# Cycle: 0
# Number of Scans: 40
#
# Cycle: 0, Curve: 0
# Acquisition Date:             04/22/26 16:37:39 UTC
#
# ColumnLabels:                 energy counts/s
#
200  2891.3244
199.9  2928.675
199.8  2895.4046
199.7  2868.1237
199.6  2906.3935
199.5  2881.2589
199.4  2867.6457
199.3  2900.7351
199.2  2917.3591
199.1  2911.8212
199  2860.7175
198.9  2923.6997
198.8  2921.5737
198.7  2928.2058
198.6  2863.831
198.5  2916.227
198.4  2863.5511
198.3  2888.6625
198.2  2864.0977
198.1  2918.0578
198  2880.1812
197.9  2896.2628
197.8  2886.3902
197.7  2851.7712
197.6  2864.02
197.5  2876.5299
197.4  2872.4984
197.3  2871.3047
197.2  2896.0151
197.1  2847.1415
197  2863.307
196.9  2858.5295
196.8  2882.099
196.7  2870.8985
196.6  2883.7149
196.5  2912.6522
196.4  2837.9234
196.3  2901.5149
196.2  2864.0087
196.1  2902.1601
196  2873.5423
195.9  2877.0959
195.8  2916.2368
195.7  2926.7231
195.6  2901.3072
195.5  2886.371
195.4  2904.3407
195.3  2863.8353
195.2  2875.7714
195.1  2890.4209
195  2880.7809
194.9  2872.4286
194.8  2880.7707
194.7  2876.0225
194.6  2849.9164
194.5  2854.4162
194.4  2893.9489
194.3  2917.0705
194.2  2902.4113
194.1  2890.8255
194  2905.9267
193.9  2916.0937
193.8  2873.3688
193.7  2870.2783
193.6  2842.5233
193.5  2874.6279
193.4  2879.4269
193.3  2927.1209
193.2  2933.0778
193.1  2897.9591
193  2879.191
192.9  2853.0727
192.8  2896.7098
192.7  2874.8016
192.6  2897.5234
192.5  2902.2894
192.4  2877.9591
192.3  2884.8624
192.2  2878.896
192.1  2900.8532
192  2897.7749
191.9  2903.4795
191.8  2884.3043
191.7  2876.699
191.6  2868.955
191.5  2880.4115
191.4  2879.4147
191.3  2892.7075
191.2  2869.8406
191.1  2896.1582
191  2884.9627
190.9  2863.0186
190.8  2866.9524
190.7  2866.33
190.6  2831.5108
190.5  2892.8846
190.4  2883.4371
190.3  2874.2108
190.2  2874.8715
190.1  2877.315
190  2902.7175
189.9  2908.0006
189.8  2892.8047
189.7  2876.9774
189.6  2877.5929
189.5  2880.5888
189.4  2888.2311
189.3  2829.4528
189.2  2840.923
189.1  2780.1218
189  2846.3324
188.9  2878.4386
188.8  2864.5355
188.7  2846.1615
188.6  2873.4525
188.5  2865.6099
188.4  2875.9483
188.3  2888.9099
188.2  2851.3245
188.1  2844.1388
188  2810.1622
187.9  2855.2034
187.8  2885.9589
187.7  2857.0392
187.6  2908.5429
187.5  2859.5606
187.4  2840.117
187.3  2853.2654
187.2  2915.3551
187.1  2884.824
187  2862.7749
186.9  2811.9319
186.8  2827.4331
186.7  2865.9499
186.6  2836.279
186.5  2880.8635
186.4  2835.0268
186.3  2843.4044
186.2  2805.1313
186.1  2841.1844
186  2861.0317
185.9  2808.5096
185.8  2852.276
185.7  2837.7594
185.6  2835.2801
185.5  2828.4927
185.4  2870.7723
185.3  2855.5579
185.2  2842.2178
185.1  2854.4481
185  2863.701
184.9  2910.1172
184.8  2845.7999
184.7  2852.0299
184.6  2861.3934
184.5  2854.5617
184.4  2833.1956
184.3  2845.8875
184.2  2842.4849
184.1  2847.7842
184  2857.951
183.9  2849.0366
183.8  2854.0979
183.7  2816.4542
183.6  2876.3057
183.5  2828.4162
183.4  2859.7144
183.3  2839.4036
183.2  2840.3563
183.1  2839.6025
183  2804.9627
182.9  2803.0332
182.8  2821.8087
182.7  2848.5962
182.6  2838.3299
182.5  2852.9276
182.4  2840.1076
182.3  2826.7285
182.2  2801.3277
182.1  2851.2838
182  2823.4004
181.9  2806.5823
181.8  2804.9441
181.7  2780.4981
181.6  2784.9843
181.5  2840.8235
181.4  2798.6431
181.3  2798.9799
181.2  2835.2627
181.1  2814.8055
181  2787.7465
180.9  2814.3224
180.8  2804.7934
180.7  2808.6583
180.6  2830.949
180.5  2785.2277
180.4  2833.9084
180.3  2807.3248
180.2  2824.4015
180.1  2808.9471
180  2826.9805
179.9  2783.874
179.8  2850.8076
179.7  2840.2319
179.6  2788.506
179.5  2827.0315
179.4  2851.9085
179.3  2815.6741
179.2  2787.5386
179.1  2797.1536
179  2809.1562
178.9  2826.951
178.8  2801.0666
178.7  2793.2974
178.6  2778.6959
178.5  2748.0491
178.4  2806.4525
178.3  2798.1852
178.2  2769.4407
178.1  2809.4374
178  2810.4174
177.9  2807.708
177.8  2826.6502
177.7  2800.0639
177.6  2795.5145
177.5  2777.2262
177.4  2795.7436
177.3  2809.4356
177.2  2809.3441
177.1  2778.8699
177  2844.0802
176.9  2810.9784
176.8  2799.5701
176.7  2830.0526
176.6  2793.8334
176.5  2815.5941
176.4  2805.6749
176.3  2817.7256
176.2  2820.1619
176.1  2808.3207
176  2791.0335
175.9  2822.8165
175.8  2810.7206
175.7  2812.7404
175.6  2792.198
175.5  2821.1523
175.4  2793.5909
175.3  2806.5542
175.2  2789.9832
175.1  2836.487
175  2812.0859
174.9  2807.4381
174.8  2822.165
174.7  2817.4665
174.6  2785.3304
174.5  2801.8625
174.4  2799.5749
174.3  2780.8507
174.2  2824.4616
174.1  2816.3048
174  2837.9523
173.9  2802.8893
173.8  2812.4848
173.7  2810.1109
173.6  2807.6705
173.5  2780.1856
173.4  2785.113
173.3  2812.9193
173.2  2820.6147
173.1  2818.897
173  2838.9281
172.9  2837.5836
172.8  2855.0632
172.7  2835.7398
172.6  2792.7631
172.5  2809.7495
172.4  2826.2644
172.3  2850.177
172.2  2844.3142
172.1  2853.1496
172  2826.6233
171.9  2836.0357
171.8  2880.0015
171.7  2851.6224
171.6  2892.4232
171.5  2850.893
171.4  2841.9979
171.3  2826.028
171.2  2897.0634
171.1  2871.3419
171  2900.3103
170.9  2868.2576
170.8  2936.3581
170.7  2900.496
170.6  2909.3334
170.5  2939.8399
170.4  2906.1095
170.3  2947.1445
170.2  2876.6391
170.1  2909.4664
170  2932.4531
169.9  2926.9263
169.8  2937.9238
169.7  2951.4637
169.6  2948.8795
169.5  2910.3126
169.4  2908.9574
169.3  2894.6607
169.2  2911.4677
169.1  2868.0421
169  2885.3192
168.9  2876.8274
168.8  2871.051
168.7  2850.4435
168.6  2848.6412
168.5  2833.8633
168.4  2875.6175
168.3  2841.285
168.2  2842.0754
168.1  2848.2517
168  2804.5359
167.9  2853.8521
167.8  2849.4199
167.7  2791.4908
167.6  2806.4408
167.5  2817.7355
167.4  2745.0506
167.3  2811.2874
167.2  2809.2312
167.1  2770.5335
167  2777.7763
166.9  2762.5599
166.8  2766.0827
166.7  2748.0891
166.6  2797.682
166.5  2802.5902
166.4  2748.2014
166.3  2774.3086
166.2  2805.9422
166.1  2765.6928
166  2758.7387
165.9  2745.1915
165.8  2760.1665
165.7  2787.1577
165.6  2778.5355
165.5  2830.9385
165.4  2769.2308
165.3  2743.3175
165.2  2792.0858
165.1  2769.1994
165  2824.0528
164.9  2825.7381
164.8  2804.1864
164.7  2768.0239
164.6  2744.3173
164.5  2751.0452
164.4  2789.9442
164.3  2757.2402
164.2  2780.727
164.1  2779.821
164  2792.1949
163.9  2766.4235
163.8  2729.4544
163.7  2769.0213
163.6  2757.5086
163.5  2767.6257
163.4  2721.5972
163.3  2770.2125
163.2  2768.0893
163.1  2767.5947
163  2759.8387
162.9  2755.7028
162.8  2808.5033
162.7  2737.277
162.6  2748.4623
162.5  2786.5086
162.4  2769.4781
162.3  2772.1673
162.2  2754.5654
162.1  2767.9108
162  2766.0014
161.9  2804.0316
161.8  2774.5584
161.7  2769.4146
161.6  2716.6973
161.5  2740.6445
161.4  2784.9059
161.3  2783.4971
161.2  2779.0393
161.1  2740.7264
161  2784.0128
160.9  2717.3621
160.8  2772.9092
160.7  2825.4307
160.6  2791.8426
160.5  2808.9592
160.4  2802.6458
160.3  2790.7431
160.2  2790.0901
160.1  2785.0243
160  2792.9821
159.9  2791.0031
159.8  2785.4956
159.7  2748.0827
159.6  2768.4566
159.5  2753.9924
159.4  2752.4385
159.3  2754.8019
159.2  2758.4574
159.1  2786.6453
159  2734.733
158.9  2731.1657
158.8  2748.5559
158.7  2732.1252
158.6  2771.0922
158.5  2741.2527
158.4  2749.406
158.3  2775.5985
158.2  2784.263
158.1  2758.4025
158  2765.0959
157.9  2739.1432
157.8  2749.7322
157.7  2777.1487
157.6  2787.8853
157.5  2764.1854
157.4  2766.5793
157.3  2768.0162
157.2  2705.1003
157.1  2749.3666
157  2764.112
156.9  2751.9282
156.8  2768.133
156.7  2740.1466
156.6  2753.2764
156.5  2777.4127
156.4  2740.0493
156.3  2736.9
156.2  2791.667
156.1  2816.1225
156  2798.7169
155.9  2802.7026
155.8  2777.4915
155.7  2811.4973
155.6  2800.9544
155.5  2848.1254
155.4  2844.0896
155.3  2844.8035
155.2  2821.6416
155.1  2813.408
155  2824.8918
154.9  2836.2501
154.8  2845.9469
154.7  2819.5795
154.6  2827.1189
154.5  2878.645
154.4  2838.057
154.3  2882.4327
154.2  2812.7862
154.1  2834.4393
154  2783.1163
153.9  2828.3346
153.8  2850.2606
153.7  2825.0206
153.6  2808.4898
153.5  2753.5166
153.4  2800.2004
153.3  2765.1122
153.2  2775.1387
153.1  2800.3149
153  2774.7129
152.9  2765.1819
152.8  2794.503
152.7  2792.8097
152.6  2733.7983
152.5  2780.0607
152.4  2790.2702
152.3  2745.0265
152.2  2728.635
152.1  2769.1804
152  2715.4032
151.9  2711.9842
151.8  2749.2592
151.7  2734.5413
151.6  2752.4468
151.5  2705.0817
151.4  2734.3683
151.3  2732.2618
151.2  2720.6491
151.1  2697.2005
151  2699.8473
150.9  2727.7464
150.8  2732.7989
150.7  2740.101
150.6  2730.5445
150.5  2726.3507
150.4  2756.2194
150.3  2742.3285
150.2  2725.7227
150.1  2737.7062
150  2704.3112
149.9  2736.8898
149.8  2720.4213
149.7  2730.058
149.6  2753.5294
149.5  2680.6718
149.4  2676.471
149.3  2707.3292
149.2  2755.3275
149.1  2765.8718
149  2761.5064
148.9  2732.755
148.8  2704.8228
148.7  2685.1158
148.6  2708.2427
148.5  2738.9035
148.4  2707.6832
148.3  2700.6488
148.2  2681.9288
148.1  2698.8697
148  2740.4705
147.9  2727.8239
147.8  2719.5409
147.7  2678.2895
147.6  2682.9431
147.5  2701.8972
147.4  2715.2114
147.3  2739.6924
147.2  2683.2674
147.1  2720.4632
147  2720.3625
146.9  2699.778
146.8  2737.2989
146.7  2717.1328
146.6  2711.8766
146.5  2762.5643
146.4  2744.8592
146.3  2730.8944
146.2  2679.0055
146.1  2741.4041
146  2692.3855
145.9  2724.581
145.8  2696.8841
145.7  2710.5795
145.6  2678.9438
145.5  2730.3065
145.4  2759.0644
145.3  2696.4744
145.2  2700.725
145.1  2732.1885
145  2725.1699
144.9  2680.606
144.8  2701.6232
144.7  2701.2438
144.6  2743.5192
144.5  2720.9101
144.4  2683.1382
144.3  2730.1356
144.2  2702.2009
144.1  2727.364
144  2737.2623
143.9  2729.1393
143.8  2734.3116
143.7  2682.9423
143.6  2697.602
143.5  2722.9915
143.4  2708.4746
143.3  2677.6594
143.2  2711.6703
143.1  2745.9932
143  2706.5213
142.9  2736.0762
142.8  2709.1843
142.7  2688.191
142.6  2700.4867
142.5  2760.5853
142.4  2713.2317
142.3  2698.62
142.2  2711.3406
142.1  2716.1191
142  2728.1731
141.9  2711.9173
141.8  2669.5192
141.7  2656.0815
141.6  2703.6544
141.5  2657.6467
141.4  2724.3558
141.3  2683.7356
141.2  2715.2
141.1  2687.8847
141  2682.5431
140.9  2684.2435
140.8  2702.5751
140.7  2697.2785
140.6  2674.5833
140.5  2685.8233
140.4  2727.9167
140.3  2650.971
140.2  2661.9644
140.1  2672.4614
140  2682.723
139.9  2649.5291
139.8  2698.3649
139.7  2695.7238
139.6  2695.1957
139.5  2736.6002
139.4  2680.6032
139.3  2683.1741
139.2  2693.3295
139.1  2653.6773
139  2656.3039
138.9  2683.5932
138.8  2690.5756
138.7  2680.9711
138.6  2684.3574
138.5  2677.1447
138.4  2671.6159
138.3  2643.3971
138.2  2650.7197
138.1  2692.983
138  2673.7954
137.9  2677.4507
137.8  2667.0733
137.7  2622.8919
137.6  2658.5768
137.5  2673.8762
137.4  2674.7458
137.3  2732.9334
137.2  2657.9749
137.1  2671.2635
137  2701.3045
136.9  2689.3136
136.8  2626.7733
136.7  2649.5337
136.6  2681.1683
136.5  2657.6441
136.4  2681.7215
136.3  2690.9658
136.2  2678.5617
136.1  2690.3786
136  2672.9326
135.9  2663.1192
135.8  2695.869
135.7  2634.6852
135.6  2657.3855
135.5  2624.4867
135.4  2682.8029
135.3  2669.0724
135.2  2731.9087
135.1  2706.3078
135  2703.9035
134.9  2684.8554
134.8  2628.7372
134.7  2652.6604
134.6  2659.0307
134.5  2675.6907
134.4  2671.6541
134.3  2691.9723
134.2  2663.9552
134.1  2682.7834
134  2687.8444
133.9  2659.6814
133.8  2656.5702
133.7  2668.0099
133.6  2659.6776
133.5  2680.6594
133.4  2674.1827
133.3  2652.3563
133.2  2680.6993
133.1  2666.0596
133  2687.0706
132.9  2727.9984
132.8  2663.0823
132.7  2676.9849
132.6  2623.4024
132.5  2655.5837
132.4  2678.6615
132.3  2671.2205
132.2  2667.5919
132.1  2650.4168
132  2654.9733
131.9  2648.0665
131.8  2660.4798
131.7  2634.1691
131.6  2651.6744
131.5  2702.1717
131.4  2648.7719
131.3  2669.8852
131.2  2685.0725
131.1  2650.1047
131  2646.3051
130.9  2661.7614
130.8  2647.0931
130.7  2662.8259
130.6  2632.2491
130.5  2664.6818
130.4  2651.767
130.3  2687.3599
130.2  2678.3039
130.1  2652.7231
130  2645.0036
129.9  2673.8026
129.8  2648.863
129.7  2663.1237
129.6  2656.5023
129.5  2658.0116
129.4  2618.8637
129.3  2654.5608
129.2  2642.9269
129.1  2689.4742
129  2656.3209
128.9  2653.8145
128.8  2661.8122
128.7  2666.2288
128.6  2652.1207
128.5  2623.3648
128.4  2655.5484
128.3  2690.703
128.2  2612.2422
128.1  2658.8016
128  2634.7937
127.9  2633.3858
127.8  2629.2106
127.7  2638.0079
127.6  2622.6677
127.5  2605.4841
127.4  2624.1677
127.3  2629.1543
127.2  2664.2893
127.1  2676.6555
127  2653.8416
126.9  2664.121
126.8  2651.709
126.7  2626.6825
126.6  2643.6443
126.5  2654.4905
126.4  2684.3943
126.3  2668.7123
126.2  2657.4401
126.1  2673.1902
126  2629.6034
125.9  2595.5684
125.8  2668.5286
125.7  2652.1464
125.6  2641.4565
125.5  2602.9556
125.4  2653.3567
125.3  2610.8565
125.2  2614.611
125.1  2633.1434
125  2644.2092
124.9  2671.2519
124.8  2658.393
124.7  2667.6086
124.6  2673.1823
124.5  2642.0728
124.4  2685.1537
124.3  2656.6
124.2  2628.8401
124.1  2636.554
124  2650.2251
123.9  2634.6205
123.8  2644.486
123.7  2651.0182
123.6  2621.3217
123.5  2651.7524
123.4  2593.6579
123.3  2631.1349
123.2  2652.2271
123.1  2661.4542
123  2637.6309
122.9  2649.5888
122.8  2615.9242
122.7  2628.4549
122.6  2639.4389
122.5  2682.1827
122.4  2649.9051
122.3  2649.5003
122.2  2679.395
122.1  2642.0307
122  2647.4881
121.9  2670.124
121.8  2660.4994
121.7  2637.0521
121.6  2645.1478
121.5  2636.9248
121.4  2633.7064
121.3  2619.932
121.2  2653.2404
121.1  2635.9424
121  2648.3233
120.9  2650.9681
120.8  2631.8058
120.7  2628.9622
120.6  2671.0098
120.5  2645.4832
120.4  2657.5448
120.3  2632.0816
120.2  2614.299
120.1  2604.7092
120  2611.5907
119.9  2632.7511
119.8  2621.0954
119.7  2647.6179
119.6  2615.2234
119.5  2598.9019
119.4  2635.0626
119.3  2607.2885
119.2  2635.9649
119.1  2614.9326
119  2657.7899
118.9  2626.6364
118.8  2655.4865
118.7  2659.7459
118.6  2661.4255
118.5  2664.5369
118.4  2623.1486
118.3  2642.4603
118.2  2618.0491
118.1  2618.917
118  2639.0119
117.9  2625.5713
117.8  2634.6746
117.7  2646.801
117.6  2633.7195
117.5  2645.0189
117.4  2667.0177
117.3  2639.3643
117.2  2640.8938
117.1  2633.2237
117  2648.225
116.9  2668.5202
116.8  2634.1907
116.7  2588.7387
116.6  2617.2723
116.5  2640.8565
116.4  2615.118
116.3  2652.1493
116.2  2603.1092
116.1  2670.9584
116  2677.7885
115.9  2665.9386
115.8  2636.4473
115.7  2635.5225
115.6  2614.491
115.5  2622.2124
115.4  2619.1439
115.3  2611.5198
115.2  2598.1306
115.1  2607.3267
115  2605.3997
114.9  2592.432
114.8  2629.0244
114.7  2624.7307
114.6  2647.9584
114.5  2583.1473
114.4  2605.8535
114.3  2574.02
114.2  2571.7493
114.1  2604.5283
114  2618.0757
113.9  2603.8829
113.8  2654.3255
113.7  2617.1541
113.6  2613.0121
113.5  2582.7907
113.4  2620.2074
113.3  2621.0406
113.2  2599.3572
113.1  2617.2736
113  2563.2711
112.9  2598.0148
112.8  2595.9983
112.7  2602.5443
112.6  2642.0155
112.5  2630.721
112.4  2597.548
112.3  2630.7673
112.2  2608.1752
112.1  2623.3956
112  2619.0497
111.9  2626.5759
111.8  2612.5549
111.7  2580.4614
111.6  2622.2574
111.5  2585.0543
111.4  2567.6679
111.3  2606.5985
111.2  2593.9337
111.1  2623.2779
111  2591.1475
110.9  2585.8268
110.8  2615.2695
110.7  2602.7008
110.6  2590.7327
110.5  2627.6872
110.4  2628.3736
110.3  2602.2091
110.2  2591.3725
110.1  2589.7511
110  2586.2628
109.9  2603.2767
109.8  2604.9832
109.7  2591.5237
109.6  2593.4339
109.5  2568.8605
109.4  2631.4982
109.3  2629.9216
109.2  2605.842
109.1  2588.3623
109  2596.9002
108.9  2604.6703
108.8  2559.1858
108.7  2550.542
108.6  2591.7851
108.5  2625.957
108.4  2593.449
108.3  2594.6522
108.2  2592.11
108.1  2562.98
108  2589.4085
107.9  2620.7186
107.8  2581.0666
107.7  2601.1328
107.6  2592.3547
107.5  2554.1989
107.4  2608.3933
107.3  2620.6681
107.2  2614.1682
107.1  2576.1237
107  2587.1411
106.9  2646.1313
106.8  2606.1431
106.7  2611.885
106.6  2603.7932
106.5  2580.7225
106.4  2638.4936
106.3  2651.2427
106.2  2602.8316
106.1  2600.1666
106  2593.4572
105.9  2623.6144
105.8  2634.3252
105.7  2627.5839
105.6  2630.4232
105.5  2655.2266
105.4  2641.2026
105.3  2592.5533
105.2  2645.767
105.1  2613.8151
105  2671.2528
104.9  2661.0538
104.8  2679.4268
104.7  2679.7303
104.6  2643.6187
104.5  2675.6974
104.4  2676.2888
104.3  2706.8552
104.2  2654.5127
104.1  2731.2431
104  2749.9656
103.9  2723.3592
103.8  2746.2078
103.7  2773.5098
103.6  2695.0589
103.5  2728.5052
103.4  2700.6852
103.3  2718.3929
103.2  2746.2048
103.1  2751.9953
103  2704.0745
102.9  2720.4487
102.8  2686.5324
102.7  2718.4592
102.6  2664.531
102.5  2680.714
102.4  2694.8533
102.3  2680.1628
102.2  2662.5407
102.1  2628.8888
102  2603.4343
101.9  2607.5011
101.8  2605.5209
101.7  2574.1473
101.6  2584.4325
101.5  2604.9803
101.4  2597.1143
101.3  2652.9493
101.2  2591.1217
101.1  2586.1357
101  2593.7265
100.9  2572.2083
100.8  2583.815
100.7  2592.278
100.6  2572.2388
100.5  2562.8492
100.4  2565.4995
100.3  2570.2918
100.2  2551.7061
100.1  2557.4743
100  2591.1222
99.9  2534.9679
99.8  2541.5955
99.7  2581.059
99.6  2558.886
99.5  2560.5254
99.4  2553.4436
99.3  2599.2585
99.2  2609.6625
99.1  2595.2791
99  2582.3223
98.9  2580.0339
98.8  2519.6361
98.7  2561.3735
98.6  2554.2633
98.5  2535.2784
98.4  2550.0884
98.3  2533.9777
98.2  2542.1668
98.1  2545.3263
98  2551.0592
97.9  2557.01
97.8  2547.1127
97.7  2598.1887
97.6  2561.7258
97.5  2575.3838
97.4  2538.9983
97.3  2559.8306
97.2  2559.7955
97.1  2573.6297
97  2571.9402
96.9  2560.7419
96.8  2551.0639
96.7  2588.088
96.6  2575.0147
96.5  2537.5311
96.4  2562.7702
96.3  2551.1702
96.2  2559.0937
96.1  2591.2415
96  2582.2525
95.9  2577.8054
95.8  2616.3742
95.7  2543.5176
95.6  2600.6195
95.5  2594.3065
95.4  2582.2716
95.3  2545.5596
95.2  2604.7386
95.1  2599.1322
95  2561.1214
94.9  2573.5472
94.8  2553.0249
94.7  2546.5191
94.6  2576.7186
94.5  2574.8019
94.4  2586.1833
94.3  2537.9042
94.2  2560.0695
94.1  2589.7334
94  2594.3169
93.9  2571.7653
93.8  2589.382
93.7  2566.45
93.6  2581.1955
93.5  2614.945
93.4  2581.9272
93.3  2541.5645
93.2  2566.2422
93.1  2545.1039
93  2598.5465
92.9  2610.0053
92.8  2550.022
92.7  2541.1783
92.6  2557.5989
92.5  2610.1684
92.4  2558.1885
92.3  2528.9419
92.2  2541.3295
92.1  2576.0924
92  2545.2856
91.9  2559.6451
91.8  2548.2482
91.7  2584.9515
91.6  2584.0669
91.5  2559.9781
91.4  2595.3924
91.3  2540.8504
91.2  2533.059
91.1  2543.3559
91  2572.6196
90.9  2568.75
90.8  2546.7014
90.7  2552.1559
90.6  2566.8467
90.5  2530.424
90.4  2514.7337
90.3  2548.23
90.2  2554.0343
90.1  2536.0859
90  2580.1587
89.9  2571.588
89.8  2555.628
89.7  2510.4135
89.6  2561.3573
89.5  2594.8616
89.4  2531.1298
89.3  2584.584
89.2  2549.5301
89.1  2519.8901
89  2491.9682
88.9  2523.4689
88.8  2548.6737
88.7  2556.0633
88.6  2525.4625
88.5  2537.2399
88.4  2555.9659
88.3  2562.5868
88.2  2503.1611
88.1  2550.2767
88  2548.3813
87.9  2535.0088
87.8  2549.5747
87.7  2532.9321
87.6  2541.4491
87.5  2596.8017
87.4  2549.9206
87.3  2538.776
87.2  2511.142
87.1  2541.0042
87  2537.2709
86.9  2551.9869
86.8  2554.8464
86.7  2525.5153
86.6  2549.7626
86.5  2529.066
86.4  2563.6484
86.3  2530.5837
86.2  2560.3269
86.1  2549.0437
86  2543.2522
85.9  2507.2958
85.8  2523.0218
85.7  2541.809
85.6  2549.2093
85.5  2543.1001
85.4  2493.9698
85.3  2478.9014
85.2  2525.7369
85.1  2552.4949
85  2529.0676
84.9  2523.9193
84.8  2521.7865
84.7  2518.5506
84.6  2525.3147
84.5  2548.4142
84.4  2523.5675
84.3  2501.0344
84.2  2523.3998
84.1  2504.2125
84  2529.5933
83.9  2533.1821
83.8  2519.2885
83.7  2532.4005
83.6  2572.4003
83.5  2584.4985
83.4  2522.278
83.3  2529.7291
83.2  2523.1669
83.1  2549.8355
83  2567.0219
82.9  2563.3994
82.8  2498.3059
82.7  2548.5318
82.6  2563.1233
82.5  2550.4945
82.4  2543.9851
82.3  2555.1557
82.2  2503.0972
82.1  2523.8299
82  2522.4594
81.9  2498.6806
81.8  2498.6511
81.7  2526.8185
81.6  2526.8242
81.5  2515.3487
81.4  2509.2069
81.3  2510.072
81.2  2521.3967
81.1  2543.5756
81  2534.3936
80.9  2503.6166
80.8  2573.911
80.7  2531.1956
80.6  2533.0579
80.5  2543.1519
80.4  2480.5363
80.3  2503.7755
80.2  2531.6247
80.1  2532.8528
80  2533.0757
79.9  2505.3267
79.8  2528.0856
79.7  2525.2288
79.6  2512.9497
79.5  2518.5793
79.4  2502.5151
79.3  2537.1433
79.2  2477.9998
79.1  2517.8031
79  2536.1878
78.9  2525.8693
78.8  2559.2449
78.7  2535.9653
78.6  2498.2924
78.5  2522.826
78.4  2504.4929
78.3  2548.5055
78.2  2570.6777
78.1  2541.901
78  2520.3386
77.9  2568.595
77.8  2555.094
77.7  2503.9001
77.6  2530.613
77.5  2516.4539
77.4  2534.594
77.3  2492.843
77.2  2532.0675
77.1  2533.4571
77  2522.1902
76.9  2521.797
76.8  2517.752
76.7  2531.4076
76.6  2526.4573
76.5  2523.284
76.4  2505.6231
76.3  2541.9525
76.2  2553.4617
76.1  2513.1881
76  2493.8633
75.9  2547.541
75.8  2533.1355
75.7  2494.8597
75.6  2516.4582
75.5  2496.1553
75.4  2514.8655
75.3  2518.6412
75.2  2577.4086
75.1  2513.2773
75  2508.8387
74.9  2505.9712
74.8  2534.8425
74.7  2512.4693
74.6  2531.2006
74.5  2541.4866
74.4  2507.0845
74.3  2528.8947
74.2  2531.4838
74.1  2542.5221
74  2519.7515
73.9  2530.9523
73.8  2508.5023
73.7  2537.4795
73.6  2507.279
73.5  2496.1504
73.4  2511.8406
73.3  2521.7204
73.2  2495.3479
73.1  2441.9786
73  2483.4107
72.9  2518.5525
72.8  2499.6146
72.7  2495.0322
72.6  2497.1781
72.5  2499.1222
72.4  2486.2228
72.3  2486.5045
72.2  2473.4551
72.1  2496.0423
72  2495.0484
71.9  2542.2211
71.8  2542.4144
71.7  2503.781
71.6  2488.3731
71.5  2492.5268
71.4  2525.0064
71.3  2551.0803
71.2  2514.2876
71.1  2491.619
71  2517.5913
70.9  2486.9503
70.8  2491.5828
70.7  2501.1772
70.6  2512.9269
70.5  2512.052
70.4  2515.7517
70.3  2526.9625
70.2  2518.1859
70.1  2507.2132
70  2478.27
69.9  2501.4216
69.8  2458.5492
69.7  2477.9114
69.6  2526.4273
69.5  2566.0637
69.4  2518.1895
69.3  2496.6067
69.2  2476.6903
69.1  2509.4371
69  2476.2623
68.9  2534.587
68.8  2476.5149
68.7  2496.3705
68.6  2511.6306
68.5  2480.7405
68.4  2527.7409
68.3  2506.1862
68.2  2475.0983
68.1  2467.7395
68  2487.0035
67.9  2481.9928
67.8  2481.8143
67.7  2491.2685
67.6  2499.4351
67.5  2514.5739
67.4  2486.6649
67.3  2486.9439
67.2  2499.1129
67.1  2487.2562
67  2495.61
66.9  2491.2124
66.8  2525.3977
66.7  2505.5177
66.6  2522.5727
66.5  2524.8546
66.4  2512.3236
66.3  2482.9256
66.2  2513.983
66.1  2510.5105
66  2509.1882
65.9  2530.474
65.8  2495.4126
65.7  2472.7272
65.6  2494.9028
65.5  2555.3313
65.4  2539.5167
65.3  2556.9804
65.2  2517.884
65.1  2517.4815
65  2501.7296
64.9  2475.7021
64.8  2515.8212
64.7  2529.0113
64.6  2515.1819
64.5  2507.717
64.4  2487.687
64.3  2514.3914
64.2  2475.8223
64.1  2482.753
64  2491.2294
63.9  2534.794
63.8  2486.2327
63.7  2541.4614
63.6  2521.6494
63.5  2522.1371
63.4  2535.4531
63.3  2543.2361
63.2  2505.5821
63.1  2518.0264
63  2534.5672
62.9  2558.5942
62.8  2471.7474
62.7  2479.0337
62.6  2505.1984
62.5  2467.939
62.4  2464.4839
62.3  2494.6702
62.2  2497.2393
62.1  2509.0332
62  2481.7628
61.9  2506.943
61.8  2468.5734
61.7  2479.1278
61.6  2463.525
61.5  2450.7179
61.4  2481.6831
61.3  2466.7907
61.2  2458.3409
61.1  2501.7697
61  2489.4553
60.9  2449.3838
60.8  2458.58
60.7  2483.7947
60.6  2475.8223
60.5  2474.2029
60.4  2466.6597
60.3  2483.3893
60.2  2434.7555
60.1  2444.9595
60  2436.1447
59.9  2478.6618
59.8  2464.5605
59.7  2469.3029
59.6  2435.6225
59.5  2492.8176
59.4  2461.5944
59.3  2451.0907
59.2  2451.0295
59.1  2443.7845
59  2419.1548
58.9  2460.3318
58.8  2466.7599
58.7  2473.7498
58.6  2469.4214
58.5  2466.5404
58.4  2481.5844
58.3  2464.4059
58.2  2422.9287
58.1  2443.1844
58  2448.6694
57.9  2432.6795
57.8  2467.5206
57.7  2448.663
57.6  2501.0649
57.5  2465.308
57.4  2429.1883
57.3  2475.1248
57.2  2438.8437
57.1  2456.3551
57  2445.8983
56.9  2426.7093
56.8  2454.9004
56.7  2473.6692
56.6  2480.7559
56.5  2471.4425
56.4  2453.3719
56.3  2441.1155
56.2  2442.9142
56.1  2451.7597
56  2470.2236
55.9  2522.6897
55.8  2454.0039
55.7  2446.0991
55.6  2469.9692
55.5  2471.2884
55.4  2529.4117
55.3  2514.621
55.2  2501.7844
55.1  2492.5142
55  2504.3455
54.9  2465.6492
54.8  2507.88
54.7  2509.7013
54.6  2521.3467
54.5  2525.4728
54.4  2554.6247
54.3  2538.4178
54.2  2522.032
54.1  2515.9171
54  2557.2415
53.9  2537.4912
53.8  2570.0639
53.7  2542.719
53.6  2529.627
53.5  2579.7252
53.4  2555.38
53.3  2556.5438
53.2  2556.5514
53.1  2525.9549
53  2589.4285
52.9  2576.7629
52.8  2586.5562
52.7  2563.5916
52.6  2562.0075
52.5  2553.2739
52.4  2500.9381
52.3  2532.8811
52.2  2526.7523
52.1  2562.8447
52  2526.1213
51.9  2503.4592
51.8  2512.1805
51.7  2476.3803
51.6  2503.5372
51.5  2491.5065
51.4  2516.3525
51.3  2474.3812
51.2  2452.1201
51.1  2482.5202
51  2470.0021
50.9  2471.6248
50.8  2466.6971
50.7  2464.3275
50.6  2456.5684
50.5  2444.3849
50.4  2426.1631
50.3  2468.0422
50.2  2462.8601
50.1  2446.4517
50  2467.5957

